T[K]        	1000/T[1/K]  	IDT[ms]     
1.000000E+03	1.000000E+00	5.909620E+01
1.025000E+03	9.756100E-01	3.721720E+01
1.050000E+03	9.523810E-01	2.354340E+01
1.075000E+03	9.302330E-01	1.489460E+01
1.100000E+03	9.090910E-01	9.401860E+00
1.125000E+03	8.888890E-01	5.927900E+00
1.150000E+03	8.695650E-01	3.746470E+00
1.175000E+03	8.510640E-01	2.384300E+00
1.200000E+03	8.333330E-01	1.540890E+00
1.225000E+03	8.163270E-01	1.013780E+00
1.250000E+03	8.000000E-01	6.836390E-01
1.275000E+03	7.843140E-01	4.737180E-01
1.300000E+03	7.692310E-01	3.380900E-01
1.325000E+03	7.547170E-01	2.466220E-01
1.350000E+03	7.407410E-01	1.845670E-01
1.375000E+03	7.272730E-01	1.413650E-01
1.400000E+03	7.142860E-01	1.101230E-01
1.425000E+03	7.017540E-01	8.779890E-02
1.450000E+03	6.896550E-01	7.059300E-02
1.475000E+03	6.779660E-01	5.696630E-02
1.500000E+03	6.666670E-01	4.687330E-02
1.525000E+03	6.557380E-01	3.920620E-02
1.550000E+03	6.451610E-01	3.297010E-02
1.575000E+03	6.349210E-01	2.777400E-02
1.600000E+03	6.250000E-01	2.384050E-02
1.625000E+03	6.153850E-01	2.084380E-02
1.650000E+03	6.060610E-01	1.791060E-02
1.675000E+03	5.970150E-01	1.558130E-02
1.700000E+03	5.882350E-01	1.370820E-02
1.725000E+03	5.797100E-01	1.226440E-02
1.750000E+03	5.714290E-01	1.098570E-02
1.775000E+03	5.633800E-01	9.990830E-03
1.800000E+03	5.555560E-01	8.776170E-03
1.825000E+03	5.479450E-01	7.873340E-03
1.850000E+03	5.405410E-01	7.246740E-03