T[K]        	1000/T[1/K]  	IDT[ms]     
1.000000E+03	1.000000E+00	5.381630E+01
1.025000E+03	9.756100E-01	3.401370E+01
1.050000E+03	9.523810E-01	2.156500E+01
1.075000E+03	9.302330E-01	1.368390E+01
1.100000E+03	9.090910E-01	8.700080E+00
1.125000E+03	8.888890E-01	5.561660E+00
1.150000E+03	8.695650E-01	3.594100E+00
1.175000E+03	8.510640E-01	2.359110E+00
1.200000E+03	8.333330E-01	1.581370E+00
1.225000E+03	8.163270E-01	1.084120E+00
1.250000E+03	8.000000E-01	7.621240E-01
1.275000E+03	7.843140E-01	5.509140E-01
1.300000E+03	7.692310E-01	4.086770E-01
1.325000E+03	7.547170E-01	3.097100E-01
1.350000E+03	7.407410E-01	2.382790E-01
1.375000E+03	7.272730E-01	1.876700E-01
1.400000E+03	7.142860E-01	1.503590E-01
1.425000E+03	7.017540E-01	1.213820E-01
1.450000E+03	6.896550E-01	9.947220E-02
1.475000E+03	6.779660E-01	8.265900E-02
1.500000E+03	6.666670E-01	6.892570E-02
1.525000E+03	6.557380E-01	5.886750E-02
1.550000E+03	6.451610E-01	4.917580E-02
1.575000E+03	6.349210E-01	4.200630E-02
1.600000E+03	6.250000E-01	3.651290E-02
1.625000E+03	6.153850E-01	3.137800E-02
1.650000E+03	6.060610E-01	2.835380E-02
1.675000E+03	5.970150E-01	2.489230E-02
1.700000E+03	5.882350E-01	2.181000E-02
1.725000E+03	5.797100E-01	1.973250E-02
1.750000E+03	5.714290E-01	1.765890E-02
1.775000E+03	5.633800E-01	1.535950E-02
1.800000E+03	5.555560E-01	1.402500E-02
1.825000E+03	5.479450E-01	1.296320E-02
1.850000E+03	5.405410E-01	1.206980E-02