T[K]        	1000/T[1/K]  	IDT[ms]     
1.000000E+03	1.000000E+00	2.042480E+01
1.025000E+03	9.756100E-01	1.260810E+01
1.050000E+03	9.523810E-01	7.967220E+00
1.075000E+03	9.302330E-01	5.141940E+00
1.100000E+03	9.090910E-01	3.378650E+00
1.125000E+03	8.888890E-01	2.258800E+00
1.150000E+03	8.695650E-01	1.534900E+00
1.175000E+03	8.510640E-01	1.062010E+00
1.200000E+03	8.333330E-01	7.532860E-01
1.225000E+03	8.163270E-01	5.505660E-01
1.250000E+03	8.000000E-01	4.118350E-01
1.275000E+03	7.843140E-01	3.151620E-01
1.300000E+03	7.692310E-01	2.446260E-01
1.325000E+03	7.547170E-01	1.929910E-01
1.350000E+03	7.407410E-01	1.546160E-01
1.375000E+03	7.272730E-01	1.246010E-01
1.400000E+03	7.142860E-01	1.022530E-01
1.425000E+03	7.017540E-01	8.484290E-02
1.450000E+03	6.896550E-01	7.037480E-02
1.475000E+03	6.779660E-01	5.836420E-02
1.500000E+03	6.666670E-01	4.924380E-02
1.525000E+03	6.557380E-01	4.172010E-02
1.550000E+03	6.451610E-01	3.625140E-02
1.575000E+03	6.349210E-01	3.079330E-02
1.600000E+03	6.250000E-01	2.669520E-02
1.625000E+03	6.153850E-01	2.312590E-02
1.650000E+03	6.060610E-01	2.067540E-02
1.675000E+03	5.970150E-01	1.781590E-02
1.700000E+03	5.882350E-01	1.543640E-02