T[K]        	1000/T[1/K]  	IDT[ms]     
1.000000E+03	1.000000E+00	3.841390E+01
1.025000E+03	9.756100E-01	2.498910E+01
1.050000E+03	9.523810E-01	1.651370E+01
1.075000E+03	9.302330E-01	1.103010E+01
1.100000E+03	9.090910E-01	7.410840E+00
1.125000E+03	8.888890E-01	4.988190E+00
1.150000E+03	8.695650E-01	3.351750E+00
1.175000E+03	8.510640E-01	2.247970E+00
1.200000E+03	8.333330E-01	1.505590E+00
1.225000E+03	8.163270E-01	1.015650E+00
1.250000E+03	8.000000E-01	6.929350E-01
1.275000E+03	7.843140E-01	4.827130E-01
1.300000E+03	7.692310E-01	3.434090E-01
1.325000E+03	7.547170E-01	2.507520E-01
1.350000E+03	7.407410E-01	1.860970E-01
1.375000E+03	7.272730E-01	1.426620E-01
1.400000E+03	7.142860E-01	1.112000E-01
1.425000E+03	7.017540E-01	8.842670E-02
1.450000E+03	6.896550E-01	7.088550E-02
1.475000E+03	6.779660E-01	5.867490E-02
1.500000E+03	6.666670E-01	4.895350E-02
1.525000E+03	6.557380E-01	4.118370E-02
1.550000E+03	6.451610E-01	3.552300E-02
1.575000E+03	6.349210E-01	3.075320E-02
1.600000E+03	6.250000E-01	2.684470E-02
1.625000E+03	6.153850E-01	2.312210E-02
1.650000E+03	6.060610E-01	2.044420E-02
1.675000E+03	5.970150E-01	1.806370E-02
1.700000E+03	5.882350E-01	1.666040E-02
1.725000E+03	5.797100E-01	1.489100E-02
1.750000E+03	5.714290E-01	1.293460E-02
1.775000E+03	5.633800E-01	1.184460E-02
1.800000E+03	5.555560E-01	1.076640E-02
1.825000E+03	5.479450E-01	9.981950E-03
1.850000E+03	5.405410E-01	8.928360E-03