[ms]_0	C-NO_0	C-OH_0
1.00000E-08	1.30951E-25	1.25710E-19
2.00000E-08	3.93462E-25	3.77130E-19
3.00000E-08	7.88141E-25	7.54259E-19
6.10205E-08	2.86841E-24	2.73058E-18
9.20410E-08	6.10071E-24	5.78215E-18
1.23062E-07	1.05954E-23	9.99859E-18
1.54082E-07	1.64012E-23	1.54097E-17
2.19474E-07	3.30909E-23	3.07746E-17
3.38561E-07	7.95536E-23	7.25561E-17
5.17882E-07	1.90746E-22	1.69094E-16
6.97203E-07	3.54149E-22	3.06045E-16
8.76524E-07	5.73150E-22	4.83413E-16
1.26139E-06	1.24897E-21	1.00053E-15
1.64625E-06	2.23015E-21	1.70381E-15
2.03111E-06	3.55041E-21	2.59321E-15
2.41597E-06	5.24516E-21	3.66872E-15
2.80083E-06	7.34955E-21	4.93030E-15
3.18570E-06	9.89829E-21	6.37793E-15
3.87220E-06	1.56554E-20	9.42199E-15
4.55871E-06	2.31301E-20	1.30577E-14
5.24521E-06	3.25165E-20	1.72849E-14
5.93171E-06	4.40080E-20	2.21034E-14
7.06624E-06	6.81282E-20	3.13617E-14
8.20077E-06	9.93932E-20	4.22331E-14
9.33529E-06	1.38668E-19	5.47162E-14
1.04698E-05	1.86814E-19	6.88100E-14
1.16044E-05	2.44689E-19	8.45131E-14
1.27389E-05	3.13148E-19	1.01824E-13
1.38734E-05	3.93041E-19	1.20742E-13
1.58543E-05	5.62484E-19	1.57621E-13
1.78352E-05	7.73854E-19	1.99386E-13
1.98162E-05	1.03161E-18	2.46030E-13
2.17971E-05	1.34017E-18	2.97545E-13
2.37780E-05	1.70392E-18	3.53922E-13
2.57589E-05	2.12725E-18	4.15154E-13
2.77399E-05	2.61447E-18	4.81233E-13
2.97208E-05	3.16990E-18	5.52148E-13
3.17017E-05	3.79781E-18	6.27893E-13
3.36826E-05	4.50245E-18	7.08458E-13
3.69043E-05	5.82322E-18	8.49757E-13
4.01260E-05	7.37611E-18	1.00374E-12
4.33477E-05	9.17895E-18	1.17038E-12
4.65694E-05	1.12494E-17	1.34963E-12
4.97911E-05	1.36049E-17	1.54145E-12
5.50095E-05	1.80695E-17	1.87875E-12
6.02280E-05	2.34000E-17	2.24877E-12
6.54465E-05	2.96679E-17	2.65136E-12
7.06650E-05	3.69437E-17	3.08636E-12
7.58835E-05	4.52971E-17	3.55361E-12
8.11020E-05	5.47964E-17	4.05297E-12
8.63205E-05	6.55094E-17	4.58430E-12
9.15389E-05	7.75029E-17	5.14744E-12
1.00269E-04	1.00609E-16	6.16027E-12
1.08998E-04	1.27787E-16	7.26117E-12
1.17728E-04	1.59336E-16	8.44960E-12
1.26458E-04	1.95548E-16	9.72505E-12
1.35188E-04	2.36714E-16	1.10871E-11
1.43918E-04	2.83117E-16	1.25352E-11
1.52647E-04	3.35040E-16	1.40692E-11
1.61377E-04	3.92759E-16	1.56886E-11
1.70107E-04	4.56551E-16	1.73933E-11
1.78837E-04	5.26686E-16	1.91831E-11
1.87566E-04	6.03436E-16	2.10577E-11
1.96296E-04	6.87068E-16	2.30172E-11
2.05026E-04	7.77851E-16	2.50614E-11
2.13756E-04	8.76048E-16	2.71903E-11
2.22485E-04	9.81925E-16	2.94041E-11
2.31215E-04	1.09575E-15	3.17027E-11
2.39945E-04	1.21778E-15	3.40865E-11
2.48675E-04	1.34828E-15	3.65554E-11
2.57404E-04	1.48751E-15	3.91100E-11
2.66134E-04	1.63575E-15	4.17503E-11
2.74864E-04	1.79325E-15	4.44768E-11
2.83594E-04	1.96028E-15	4.72899E-11
2.92324E-04	2.13711E-15	5.01899E-11
3.01053E-04	2.32400E-15	5.31775E-11
3.09783E-04	2.52123E-15	5.62531E-11
3.18513E-04	2.72907E-15	5.94172E-11
3.27243E-04	2.94778E-15	6.26706E-11
3.35972E-04	3.17765E-15	6.60139E-11
3.44702E-04	3.41896E-15	6.94479E-11
3.53432E-04	3.67198E-15	7.29732E-11
3.62162E-04	3.93699E-15	7.65906E-11
3.70891E-04	4.21429E-15	8.03011E-11
3.79621E-04	4.50415E-15	8.41055E-11
3.88351E-04	4.80688E-15	8.80048E-11
3.97081E-04	5.12277E-15	9.19998E-11
4.05811E-04	5.45211E-15	9.60918E-11
4.19022E-04	5.97678E-15	1.02471E-10
4.32233E-04	6.53403E-15	1.09078E-10
4.45444E-04	7.12493E-15	1.15917E-10
4.58655E-04	7.75061E-15	1.22993E-10
4.71866E-04	8.41217E-15	1.30310E-10
4.85078E-04	9.11078E-15	1.37872E-10
4.98289E-04	9.84763E-15	1.45686E-10
5.11500E-04	1.06239E-14	1.53755E-10
5.24711E-04	1.14408E-14	1.62085E-10
5.37922E-04	1.22997E-14	1.70683E-10
5.51134E-04	1.32018E-14	1.79553E-10
5.64345E-04	1.41485E-14	1.88702E-10
5.77556E-04	1.51410E-14	1.98136E-10
5.90767E-04	1.61809E-14	2.07862E-10
6.03978E-04	1.72695E-14	2.17886E-10
6.17190E-04	1.84082E-14	2.28216E-10
6.30401E-04	1.95986E-14	2.38859E-10
6.43612E-04	2.08422E-14	2.49821E-10
6.56823E-04	2.21406E-14	2.61112E-10
6.70034E-04	2.34954E-14	2.72738E-10
6.83245E-04	2.49082E-14	2.84708E-10
6.96457E-04	2.63808E-14	2.97031E-10
7.09668E-04	2.79149E-14	3.09715E-10
7.22879E-04	2.95122E-14	3.22769E-10
7.36090E-04	3.11746E-14	3.36202E-10
7.49301E-04	3.29040E-14	3.50024E-10
7.62512E-04	3.47023E-14	3.64245E-10
7.75724E-04	3.65715E-14	3.78875E-10
7.88935E-04	3.85136E-14	3.93923E-10
8.02146E-04	4.05308E-14	4.09401E-10
8.15357E-04	4.26251E-14	4.25319E-10
8.28568E-04	4.47987E-14	4.41690E-10
8.41780E-04	4.70539E-14	4.58523E-10
8.54991E-04	4.93931E-14	4.75832E-10
8.68202E-04	5.18186E-14	4.93628E-10
8.81413E-04	5.43328E-14	5.11923E-10
8.94624E-04	5.69382E-14	5.30731E-10
9.07836E-04	5.96375E-14	5.50065E-10
9.21047E-04	6.24332E-14	5.69938E-10
9.34258E-04	6.53281E-14	5.90365E-10
9.47469E-04	6.83249E-14	6.11358E-10
9.60680E-04	7.14266E-14	6.32933E-10
9.73891E-04	7.46360E-14	6.55106E-10
9.87103E-04	7.79562E-14	6.77890E-10
1.00031E-03	8.13902E-14	7.01303E-10
1.01352E-03	8.49413E-14	7.25359E-10
1.02674E-03	8.86126E-14	7.50076E-10
1.03995E-03	9.24076E-14	7.75471E-10
1.05316E-03	9.63296E-14	8.01561E-10
1.06637E-03	1.00382E-13	8.28365E-10
1.07958E-03	1.04569E-13	8.55899E-10
1.09279E-03	1.08894E-13	8.84183E-10
1.10600E-03	1.13360E-13	9.13237E-10
1.11921E-03	1.17973E-13	9.43080E-10
1.13243E-03	1.22735E-13	9.73731E-10
1.14564E-03	1.27651E-13	1.00521E-09
1.15885E-03	1.32725E-13	1.03755E-09
1.17206E-03	1.37961E-13	1.07075E-09
1.18527E-03	1.43365E-13	1.10485E-09
1.19848E-03	1.48939E-13	1.13987E-09
1.21169E-03	1.54691E-13	1.17583E-09
1.22490E-03	1.60623E-13	1.21276E-09
1.23811E-03	1.66741E-13	1.25067E-09
1.25133E-03	1.73051E-13	1.28960E-09
1.26454E-03	1.79557E-13	1.32957E-09
1.27775E-03	1.86265E-13	1.37061E-09
1.29096E-03	1.93180E-13	1.41274E-09
1.30417E-03	2.00308E-13	1.45599E-09
1.31738E-03	2.07655E-13	1.50039E-09
1.33059E-03	2.15228E-13	1.54597E-09
1.34380E-03	2.23031E-13	1.59275E-09
1.35702E-03	2.31071E-13	1.64078E-09
1.37023E-03	2.39355E-13	1.69007E-09
1.38344E-03	2.47890E-13	1.74066E-09
1.39665E-03	2.56682E-13	1.79259E-09
1.40986E-03	2.65739E-13	1.84588E-09
1.42307E-03	2.75067E-13	1.90057E-09
1.43628E-03	2.84673E-13	1.95670E-09
1.44949E-03	2.94567E-13	2.01429E-09
1.46270E-03	3.04755E-13	2.07339E-09
1.47592E-03	3.15245E-13	2.13404E-09
1.48913E-03	3.26046E-13	2.19626E-09
1.50234E-03	3.37165E-13	2.26010E-09
1.51555E-03	3.48613E-13	2.32560E-09
1.52876E-03	3.60397E-13	2.39279E-09
1.54197E-03	3.72527E-13	2.46173E-09
1.55518E-03	3.85012E-13	2.53244E-09
1.56839E-03	3.97862E-13	2.60499E-09
1.58161E-03	4.11086E-13	2.67939E-09
1.59482E-03	4.24695E-13	2.75571E-09
1.60803E-03	4.38700E-13	2.83399E-09
1.62124E-03	4.53110E-13	2.91426E-09
1.63445E-03	4.67938E-13	2.99659E-09
1.64766E-03	4.83193E-13	3.08102E-09
1.66087E-03	4.98889E-13	3.16760E-09
1.67408E-03	5.15036E-13	3.25637E-09
1.68729E-03	5.31647E-13	3.34739E-09
1.70051E-03	5.48734E-13	3.44072E-09
1.71372E-03	5.66311E-13	3.53639E-09
1.72693E-03	5.84390E-13	3.63448E-09
1.74014E-03	6.02985E-13	3.73502E-09
1.75335E-03	6.22110E-13	3.83809E-09
1.76656E-03	6.41779E-13	3.94372E-09
1.77977E-03	6.62007E-13	4.05199E-09
1.79298E-03	6.82809E-13	4.16296E-09
1.80620E-03	7.04201E-13	4.27667E-09
1.81941E-03	7.26197E-13	4.39319E-09
1.83262E-03	7.48815E-13	4.51259E-09
1.84583E-03	7.72071E-13	4.63492E-09
1.85904E-03	7.95983E-13	4.76025E-09
1.87225E-03	8.20567E-13	4.88865E-09
1.88546E-03	8.45842E-13	5.02017E-09
1.89867E-03	8.71826E-13	5.15488E-09
1.91189E-03	8.98539E-13	5.29286E-09
1.92510E-03	9.25999E-13	5.43417E-09
1.93831E-03	9.54227E-13	5.57887E-09
1.95152E-03	9.83244E-13	5.72705E-09
1.96473E-03	1.01307E-12	5.87876E-09
1.97794E-03	1.04373E-12	6.03408E-09
1.99115E-03	1.07524E-12	6.19309E-09
2.00436E-03	1.10762E-12	6.35584E-09
2.01758E-03	1.14091E-12	6.52243E-09
2.03079E-03	1.17511E-12	6.69292E-09
2.04400E-03	1.21027E-12	6.86738E-09
2.05721E-03	1.24639E-12	7.04590E-09
2.07042E-03	1.28352E-12	7.22854E-09
2.08363E-03	1.32167E-12	7.41539E-09
2.09684E-03	1.36087E-12	7.60652E-09
2.11005E-03	1.40115E-12	7.80201E-09
2.12326E-03	1.44254E-12	8.00193E-09
2.13648E-03	1.48507E-12	8.20637E-09
2.14969E-03	1.52876E-12	8.41539E-09
2.16290E-03	1.57365E-12	8.62909E-09
2.17611E-03	1.61977E-12	8.84753E-09
2.18932E-03	1.66715E-12	9.07079E-09
2.20253E-03	1.71582E-12	9.29896E-09
2.21574E-03	1.76582E-12	9.53211E-09
2.22895E-03	1.81719E-12	9.77031E-09
2.24216E-03	1.86995E-12	1.00137E-08
2.25538E-03	1.92414E-12	1.02622E-08
2.26859E-03	1.97981E-12	1.05160E-08
2.28180E-03	2.03698E-12	1.07752E-08
2.29501E-03	2.09571E-12	1.10399E-08
2.30822E-03	2.15602E-12	1.13100E-08
2.32143E-03	2.21796E-12	1.15857E-08
2.33464E-03	2.28157E-12	1.18671E-08
2.34785E-03	2.34689E-12	1.21542E-08
2.36107E-03	2.41397E-12	1.24470E-08
2.37428E-03	2.48285E-12	1.27458E-08
2.38749E-03	2.55357E-12	1.30504E-08
2.40070E-03	2.62619E-12	1.33610E-08
2.41391E-03	2.70075E-12	1.36777E-08
2.42712E-03	2.77730E-12	1.40004E-08
2.44033E-03	2.85589E-12	1.43293E-08
2.45354E-03	2.93657E-12	1.46644E-08
2.46676E-03	3.01940E-12	1.50058E-08
2.47997E-03	3.10441E-12	1.53535E-08
2.49318E-03	3.19168E-12	1.57075E-08
2.50639E-03	3.28125E-12	1.60679E-08
2.51960E-03	3.37319E-12	1.64347E-08
2.53281E-03	3.46754E-12	1.68079E-08
2.54602E-03	3.56437E-12	1.71876E-08
2.55923E-03	3.66373E-12	1.75739E-08
2.57244E-03	3.76570E-12	1.79666E-08
2.58566E-03	3.87032E-12	1.83659E-08
2.59887E-03	3.97767E-12	1.87718E-08
2.61208E-03	4.08780E-12	1.91842E-08
2.62529E-03	4.20079E-12	1.96031E-08
2.63850E-03	4.31670E-12	2.00286E-08
2.65171E-03	4.43560E-12	2.04606E-08
2.66492E-03	4.55756E-12	2.08991E-08
2.67813E-03	4.68264E-12	2.13441E-08
2.69134E-03	4.81092E-12	2.17956E-08
2.70456E-03	4.94248E-12	2.22534E-08
2.71777E-03	5.07738E-12	2.27177E-08
2.73098E-03	5.21569E-12	2.31882E-08
2.74419E-03	5.35751E-12	2.36651E-08
2.75740E-03	5.50290E-12	2.41481E-08
2.77061E-03	5.65194E-12	2.46373E-08
2.78382E-03	5.80471E-12	2.51325E-08
2.79703E-03	5.96129E-12	2.56336E-08
2.81025E-03	6.12176E-12	2.61406E-08
2.82346E-03	6.28620E-12	2.66534E-08
2.83667E-03	6.45470E-12	2.71718E-08
2.84988E-03	6.62734E-12	2.76957E-08
2.86309E-03	6.80420E-12	2.82250E-08
2.87630E-03	6.98538E-12	2.87595E-08
2.88951E-03	7.17095E-12	2.92992E-08
2.90272E-03	7.36100E-12	2.98438E-08
2.91594E-03	7.55563E-12	3.03932E-08
2.92915E-03	7.75492E-12	3.09472E-08
2.94236E-03	7.95895E-12	3.15057E-08
2.95557E-03	8.16783E-12	3.20684E-08
2.96878E-03	8.38163E-12	3.26351E-08
2.98199E-03	8.60045E-12	3.32057E-08
2.99520E-03	8.82438E-12	3.37800E-08
3.00841E-03	9.05351E-12	3.43576E-08
3.02163E-03	9.28793E-12	3.49385E-08
3.03484E-03	9.52773E-12	3.55223E-08
3.04805E-03	9.77301E-12	3.61089E-08
3.06126E-03	1.00239E-11	3.66979E-08
3.07447E-03	1.02804E-11	3.72891E-08
3.08768E-03	1.05426E-11	3.78823E-08
3.10089E-03	1.08107E-11	3.84772E-08
3.11410E-03	1.10847E-11	3.90735E-08
3.12731E-03	1.13648E-11	3.96710E-08
3.14052E-03	1.16509E-11	4.02694E-08
3.15374E-03	1.19433E-11	4.08683E-08
3.16695E-03	1.22419E-11	4.14675E-08
3.18016E-03	1.25469E-11	4.20668E-08
3.19337E-03	1.28584E-11	4.26658E-08
3.20658E-03	1.31764E-11	4.32642E-08
3.21979E-03	1.35011E-11	4.38617E-08
3.23300E-03	1.38325E-11	4.44580E-08
3.24622E-03	1.41707E-11	4.50529E-08
3.25943E-03	1.45157E-11	4.56460E-08
3.27264E-03	1.48677E-11	4.62371E-08
3.28585E-03	1.52268E-11	4.68258E-08
3.29906E-03	1.55930E-11	4.74119E-08
3.31227E-03	1.59663E-11	4.79950E-08
3.32548E-03	1.63470E-11	4.85748E-08
3.33869E-03	1.67349E-11	4.91512E-08
3.35190E-03	1.71303E-11	4.97238E-08
3.36512E-03	1.75331E-11	5.02922E-08
3.37833E-03	1.79435E-11	5.08564E-08
3.39154E-03	1.83615E-11	5.14159E-08
3.40475E-03	1.87871E-11	5.19706E-08
3.41796E-03	1.92205E-11	5.25201E-08
3.43117E-03	1.96616E-11	5.30643E-08
3.44438E-03	2.01106E-11	5.36029E-08
3.45759E-03	2.05674E-11	5.41356E-08
3.47080E-03	2.10322E-11	5.46623E-08
3.48402E-03	2.15050E-11	5.51827E-08
3.49723E-03	2.19857E-11	5.56966E-08
3.51044E-03	2.24746E-11	5.62039E-08
3.52365E-03	2.29715E-11	5.67043E-08
3.53686E-03	2.34766E-11	5.71977E-08
3.55007E-03	2.39898E-11	5.76839E-08
3.56328E-03	2.45112E-11	5.81627E-08
3.57649E-03	2.50408E-11	5.86341E-08
3.58971E-03	2.55787E-11	5.90978E-08
3.60292E-03	2.61249E-11	5.95538E-08
3.61613E-03	2.66793E-11	6.00019E-08
3.62934E-03	2.72420E-11	6.04421E-08
3.64255E-03	2.78130E-11	6.08742E-08
3.65576E-03	2.83924E-11	6.12982E-08
3.66897E-03	2.89800E-11	6.17140E-08
3.68218E-03	2.95760E-11	6.21216E-08
3.69540E-03	3.01803E-11	6.25208E-08
3.70861E-03	3.07930E-11	6.29117E-08
3.72182E-03	3.14139E-11	6.32943E-08
3.73503E-03	3.20432E-11	6.36684E-08
3.74824E-03	3.26807E-11	6.40342E-08
3.76145E-03	3.33266E-11	6.43916E-08
3.77466E-03	3.39807E-11	6.47406E-08
3.78787E-03	3.46430E-11	6.50812E-08
3.80108E-03	3.53136E-11	6.54136E-08
3.81430E-03	3.59924E-11	6.57376E-08
3.82751E-03	3.66793E-11	6.60534E-08
3.84072E-03	3.73744E-11	6.63610E-08
3.85393E-03	3.80776E-11	6.66605E-08
3.86714E-03	3.87889E-11	6.69519E-08
3.88035E-03	3.95082E-11	6.72354E-08
3.89356E-03	4.02355E-11	6.75109E-08
3.90677E-03	4.09708E-11	6.77786E-08
3.91998E-03	4.17139E-11	6.80387E-08
3.93320E-03	4.24650E-11	6.82910E-08
3.94641E-03	4.32238E-11	6.85359E-08
3.95962E-03	4.39905E-11	6.87734E-08
3.97283E-03	4.47648E-11	6.90035E-08
3.98604E-03	4.55469E-11	6.92265E-08
3.99925E-03	4.63365E-11	6.94424E-08
4.01246E-03	4.71337E-11	6.96514E-08
4.02568E-03	4.79384E-11	6.98536E-08
4.03889E-03	4.87505E-11	7.00491E-08
4.05210E-03	4.95700E-11	7.02380E-08
4.06531E-03	5.03968E-11	7.04205E-08
4.07852E-03	5.12309E-11	7.05967E-08
4.09173E-03	5.20721E-11	7.07668E-08
4.10494E-03	5.29205E-11	7.09308E-08
4.11815E-03	5.37759E-11	7.10890E-08
4.13136E-03	5.46383E-11	7.12414E-08
4.14458E-03	5.55076E-11	7.13883E-08
4.15779E-03	5.63838E-11	7.15296E-08
4.17100E-03	5.72668E-11	7.16657E-08
4.18421E-03	5.81564E-11	7.17965E-08
4.19742E-03	5.90527E-11	7.19223E-08
4.21063E-03	5.99555E-11	7.20432E-08
4.22384E-03	6.08649E-11	7.21593E-08
4.23705E-03	6.17806E-11	7.22708E-08
4.25026E-03	6.27027E-11	7.23777E-08
4.26348E-03	6.36310E-11	7.24803E-08
4.27669E-03	6.45656E-11	7.25786E-08
4.28990E-03	6.55062E-11	7.26728E-08
4.30311E-03	6.64529E-11	7.27630E-08
4.31632E-03	6.74055E-11	7.28493E-08
4.32953E-03	6.83641E-11	7.29318E-08
4.34274E-03	6.93284E-11	7.30107E-08
4.35595E-03	7.02985E-11	7.30862E-08
4.36917E-03	7.12742E-11	7.31582E-08
4.38238E-03	7.22555E-11	7.32269E-08
4.39559E-03	7.32424E-11	7.32925E-08
4.40880E-03	7.42346E-11	7.33550E-08
4.42201E-03	7.52323E-11	7.34145E-08
4.43522E-03	7.62352E-11	7.34713E-08
4.44843E-03	7.72433E-11	7.35252E-08
4.46164E-03	7.82565E-11	7.35765E-08
4.47485E-03	7.92748E-11	7.36253E-08
4.48807E-03	8.02981E-11	7.36716E-08
4.50128E-03	8.13263E-11	7.37155E-08
4.51449E-03	8.23593E-11	7.37572E-08
4.52770E-03	8.33971E-11	7.37966E-08
4.54091E-03	8.44396E-11	7.38340E-08
4.55412E-03	8.54867E-11	7.38694E-08
4.56733E-03	8.65383E-11	7.39028E-08
4.58054E-03	8.75945E-11	7.39343E-08
4.59375E-03	8.86550E-11	7.39641E-08
4.60697E-03	8.97199E-11	7.39922E-08
4.62018E-03	9.07890E-11	7.40186E-08
4.63339E-03	9.18623E-11	7.40434E-08
4.64660E-03	9.29398E-11	7.40668E-08
4.65981E-03	9.40213E-11	7.40886E-08
4.67302E-03	9.51069E-11	7.41092E-08
4.68623E-03	9.61963E-11	7.41284E-08
4.69945E-03	9.72896E-11	7.41463E-08
4.71266E-03	9.83868E-11	7.41630E-08
4.72587E-03	9.94876E-11	7.41786E-08
4.74573E-03	1.01150E-10	7.42000E-08
4.76559E-03	1.02819E-10	7.42190E-08
4.78545E-03	1.04497E-10	7.42359E-08
4.80531E-03	1.06183E-10	7.42508E-08
4.82517E-03	1.07876E-10	7.42639E-08
4.84503E-03	1.09576E-10	7.42752E-08
4.86489E-03	1.11283E-10	7.42849E-08
4.88475E-03	1.12998E-10	7.42931E-08
4.90462E-03	1.14718E-10	7.43000E-08
4.92448E-03	1.16446E-10	7.43056E-08
4.94434E-03	1.18179E-10	7.43101E-08
4.96420E-03	1.19920E-10	7.43135E-08
4.98406E-03	1.21665E-10	7.43159E-08
5.00392E-03	1.23417E-10	7.43175E-08
5.02378E-03	1.25175E-10	7.43182E-08
5.04364E-03	1.26937E-10	7.43181E-08
5.06350E-03	1.28706E-10	7.43174E-08
5.08336E-03	1.30479E-10	7.43161E-08
5.10322E-03	1.32257E-10	7.43142E-08
5.12309E-03	1.34041E-10	7.43118E-08
5.14295E-03	1.35829E-10	7.43089E-08
5.16281E-03	1.37622E-10	7.43057E-08
5.18267E-03	1.39419E-10	7.43020E-08
5.20253E-03	1.41220E-10	7.42981E-08
5.22239E-03	1.43026E-10	7.42938E-08
5.24225E-03	1.44836E-10	7.42893E-08
5.26211E-03	1.46650E-10	7.42846E-08
5.28197E-03	1.48467E-10	7.42797E-08
5.30183E-03	1.50288E-10	7.42746E-08
5.32169E-03	1.52113E-10	7.42694E-08
5.34155E-03	1.53942E-10	7.42641E-08
5.36142E-03	1.55774E-10	7.42586E-08
5.38128E-03	1.57609E-10	7.42531E-08
5.40114E-03	1.59447E-10	7.42476E-08
5.42100E-03	1.61289E-10	7.42420E-08
5.44086E-03	1.63133E-10	7.42363E-08
5.46072E-03	1.64980E-10	7.42307E-08
5.48058E-03	1.66830E-10	7.42250E-08
5.50044E-03	1.68683E-10	7.42194E-08
5.52030E-03	1.70539E-10	7.42138E-08
5.54016E-03	1.72397E-10	7.42082E-08
5.56002E-03	1.74257E-10	7.42026E-08
5.57988E-03	1.76120E-10	7.41971E-08
5.59975E-03	1.77985E-10	7.41917E-08
5.61961E-03	1.79853E-10	7.41863E-08
5.63947E-03	1.81722E-10	7.41809E-08
5.65933E-03	1.83594E-10	7.41757E-08
5.67919E-03	1.85468E-10	7.41704E-08
5.69905E-03	1.87343E-10	7.41653E-08
5.71891E-03	1.89221E-10	7.41603E-08
5.73877E-03	1.91100E-10	7.41553E-08
5.75863E-03	1.92982E-10	7.41504E-08
5.77849E-03	1.94865E-10	7.41455E-08
5.79835E-03	1.96749E-10	7.41408E-08
5.81822E-03	1.98636E-10	7.41361E-08
5.83808E-03	2.00523E-10	7.41316E-08
5.85794E-03	2.02413E-10	7.41271E-08
5.87780E-03	2.04303E-10	7.41227E-08
5.89766E-03	2.06195E-10	7.41183E-08
5.91752E-03	2.08089E-10	7.41141E-08
5.93738E-03	2.09984E-10	7.41099E-08
5.95724E-03	2.11880E-10	7.41059E-08
5.97710E-03	2.13777E-10	7.41019E-08
5.99696E-03	2.15676E-10	7.40980E-08
6.01682E-03	2.17575E-10	7.40941E-08
6.03669E-03	2.19476E-10	7.40904E-08
6.05655E-03	2.21378E-10	7.40867E-08
6.07641E-03	2.23281E-10	7.40831E-08
6.09627E-03	2.25185E-10	7.40796E-08
6.11613E-03	2.27090E-10	7.40761E-08
6.14596E-03	2.29953E-10	7.40711E-08
6.17580E-03	2.32818E-10	7.40662E-08
6.20563E-03	2.35685E-10	7.40615E-08
6.23547E-03	2.38554E-10	7.40569E-08
6.26530E-03	2.41425E-10	7.40525E-08
6.29514E-03	2.44297E-10	7.40482E-08
6.32497E-03	2.47171E-10	7.40440E-08
6.35481E-03	2.50046E-10	7.40400E-08
6.38464E-03	2.52923E-10	7.40360E-08
6.41448E-03	2.55801E-10	7.40323E-08
6.44431E-03	2.58680E-10	7.40286E-08
6.47415E-03	2.61560E-10	7.40250E-08
6.50398E-03	2.64442E-10	7.40215E-08
6.53382E-03	2.67325E-10	7.40182E-08
6.56365E-03	2.70208E-10	7.40149E-08
6.59349E-03	2.73093E-10	7.40117E-08
6.62332E-03	2.75978E-10	7.40086E-08
6.65316E-03	2.78864E-10	7.40056E-08
6.68299E-03	2.81752E-10	7.40027E-08
6.71283E-03	2.84639E-10	7.39999E-08
6.74266E-03	2.87528E-10	7.39971E-08
6.77250E-03	2.90417E-10	7.39944E-08
6.80233E-03	2.93307E-10	7.39917E-08
6.83217E-03	2.96198E-10	7.39891E-08
6.86200E-03	2.99089E-10	7.39866E-08
6.89184E-03	3.01981E-10	7.39841E-08
6.92167E-03	3.04873E-10	7.39817E-08
6.95151E-03	3.07766E-10	7.39794E-08
6.98134E-03	3.10659E-10	7.39770E-08
7.01118E-03	3.13552E-10	7.39748E-08
7.04101E-03	3.16446E-10	7.39726E-08
7.07085E-03	3.19341E-10	7.39704E-08
7.10068E-03	3.22235E-10	7.39682E-08
7.13052E-03	3.25131E-10	7.39661E-08
7.16035E-03	3.28026E-10	7.39641E-08
7.19019E-03	3.30922E-10	7.39620E-08
7.22002E-03	3.33818E-10	7.39600E-08
7.24986E-03	3.36714E-10	7.39580E-08
7.27969E-03	3.39611E-10	7.39561E-08
7.30953E-03	3.42507E-10	7.39542E-08
7.33936E-03	3.45404E-10	7.39523E-08
7.36920E-03	3.48302E-10	7.39504E-08
7.39903E-03	3.51199E-10	7.39486E-08
7.44395E-03	3.55561E-10	7.39458E-08
7.48886E-03	3.59924E-10	7.39431E-08
7.53378E-03	3.64287E-10	7.39405E-08
7.57869E-03	3.68650E-10	7.39379E-08
7.62361E-03	3.73014E-10	7.39353E-08
7.66852E-03	3.77377E-10	7.39328E-08
7.71343E-03	3.81741E-10	7.39302E-08
7.75835E-03	3.86105E-10	7.39278E-08
7.80326E-03	3.90469E-10	7.39253E-08
7.84818E-03	3.94834E-10	7.39229E-08
7.89309E-03	3.99198E-10	7.39205E-08
7.93801E-03	4.03563E-10	7.39181E-08
7.98292E-03	4.07928E-10	7.39157E-08
8.02784E-03	4.12292E-10	7.39133E-08
8.07275E-03	4.16657E-10	7.39110E-08
8.11767E-03	4.21022E-10	7.39087E-08
8.16258E-03	4.25387E-10	7.39064E-08
8.20750E-03	4.29751E-10	7.39041E-08
8.25241E-03	4.34116E-10	7.39018E-08
8.29732E-03	4.38481E-10	7.38995E-08
8.34224E-03	4.42846E-10	7.38972E-08
8.38715E-03	4.47210E-10	7.38950E-08
8.43207E-03	4.51575E-10	7.38927E-08
8.47698E-03	4.55939E-10	7.38905E-08
8.52190E-03	4.60304E-10	7.38882E-08
8.56681E-03	4.64668E-10	7.38860E-08
